Date,Close,High,Low,Open,Volume
2024-06-03 00:00:00,146.03225708007812,146.36737068289875,144.17925121093148,146.36737068289875,266200.0
2024-06-04 00:00:00,146.0618438720703,146.2589686615148,144.59323636734268,145.52959039694704,287900.0
2024-06-05 00:00:00,145.79571533203125,146.0716930417731,144.96778220280572,145.59859054502382,229200.0
2024-06-06 00:00:00,143.86386108398438,145.88440880600294,143.31189066428476,145.88440880600294,197600.0
2024-06-07 00:00:00,143.45974731445312,144.2285444662039,143.36117740693376,143.67658907927066,179100.0
2024-06-10 00:00:00,143.49916076660156,143.7160025231276,141.92214758418723,142.75008063292896,125800.0
2024-06-11 00:00:00,143.41046142578125,143.64702017849177,142.2769826949795,142.82893807831448,147700.0
2024-06-12 00:00:00,143.7357177734375,144.20882021847441,142.0009987818651,144.13983331840817,221300.0
2024-06-13 00:00:00,143.7357177734375,144.42566197237792,142.93735269754535,143.79485369911018,232400.0
2024-06-14 00:00:00,142.67123413085938,143.29219146515524,141.61659326401758,143.00634775522434,141500.0
2024-06-17 00:00:00,144.22854614257812,144.57351074359278,142.4938270435314,142.78950669021356,303800.0
2024-06-18 00:00:00,144.58338928222656,145.5690282956282,144.3665474961056,144.3763984719628,219900.0
2024-06-20 00:00:00,143.71600341796875,145.41130350337028,143.57801457565262,144.55380248609546,199900.0
2024-06-21 00:00:00,144.7410888671875,145.0269175512493,143.22319643005923,143.77515184732147,444100.0
2024-06-24 00:00:00,144.61293029785156,146.10123951643405,144.5636453484352,145.1057497127053,182900.0
2024-06-25 00:00:00,142.77967834472656,144.6918205744994,142.42484767281348,144.6819545582753,194500.0
2024-06-26 00:00:00,141.64617919921875,142.71065602338638,140.90694999153433,142.17841761130256,192400.0
2024-06-27 00:00:00,141.8038787841797,141.81374479960695,140.22686540055793,141.8038787841797,377300.0
2024-06-28 00:00:00,138.78781127929688,142.24741344807995,138.07815006722117,141.71516001919514,435100.0
2024-07-01 00:00:00,136.55039978027344,139.44818040813772,136.40255996850703,139.3496255468452,306400.0
2024-07-02 00:00:00,138.38368225097656,138.48225214737033,135.78159640651964,136.49125754952195,259400.0
2024-07-03 00:00:00,139.19192504882812,139.3693328297382,138.5512657871117,138.8568114362274,143300.0
2024-07-05 00:00:00,138.8765106201172,139.40876403156085,137.72331494819667,138.96522954846154,207000.0
2024-07-08 00:00:00,139.47775268554688,140.45354059235936,139.46790171100946,139.61574152734963,249300.0
2024-07-09 00:00:00,138.0288848876953,139.24123173846667,137.7430561828335,138.8371161215429,238400.0
2024-07-10 00:00:00,139.26092529296875,139.59605397733398,138.55127906168153,138.728686859589,142000.0
2024-07-11 00:00:00,140.0494384765625,141.2420682548545,138.72868585837,139.17222038959497,244500.0
2024-07-12 00:00:00,142.51351928710938,143.40060328570704,141.35047265028936,141.35047265028936,263900.0
2024-07-15 00:00:00,141.37017822265625,143.59773173075385,141.0843495631189,142.68107974600557,319900.0
2024-07-16 00:00:00,142.48394775390625,143.21332590696588,141.78415260241513,141.78415260241513,178800.0
2024-07-17 00:00:00,142.77967834472656,143.67661352090394,142.2671418098168,142.2671418098168,242300.0
2024-07-18 00:00:00,144.17926025390625,145.13533121106678,142.52339408459096,142.53324505953103,434200.0
2024-07-19 00:00:00,143.84414672851562,144.48480601215567,142.58253011112916,144.48480601215567,251200.0
2024-07-22 00:00:00,145.07620239257812,145.44088399876756,143.1640603845393,143.89343863657533,235700.0
2024-07-23 00:00:00,143.9427032470703,146.3772326162615,143.57802165432443,145.74642430033683,234500.0
2024-07-24 00:00:00,142.0699920654297,144.52423836870878,141.83343331245436,143.97228298475594,250600.0
2024-07-25 00:00:00,139.89480590820312,142.42594130774376,139.62784574265183,141.2196947365944,558100.0
2024-07-26 00:00:00,145.00650024414062,149.58428951716638,140.74509531827985,141.51630008001658,562800.0
2024-07-29 00:00:00,146.13365173339844,146.67745384948998,143.53329848802352,144.92740525288843,390900.0
2024-07-30 00:00:00,144.1067657470703,146.23251989319934,143.7706026416208,145.71839340960233,411000.0
2024-07-31 00:00:00,145.32290649414062,147.17183390542505,143.77061491193157,144.84832235848688,280600.0
2024-08-01 00:00:00,145.37232971191406,147.854025638271,143.7903626524537,145.2240269005454,335300.0
2024-08-02 00:00:00,144.04747009277344,145.3426985297352,142.1293395486356,144.9274354872042,213500.0
2024-08-05 00:00:00,139.0939178466797,141.81291339681394,137.9074500785178,141.81291339681394,448500.0
2024-08-06 00:00:00,143.29600524902344,144.44293065614994,139.5190810047534,139.7366018608207,476000.0
2024-08-07 00:00:00,141.9810028076172,145.59972705330472,141.85246365130058,144.36382004796945,353600.0
2024-08-08 00:00:00,143.91891479492188,144.51215626741873,142.83132554435412,142.83132554435412,268600.0
2024-08-09 00:00:00,142.32705688476562,143.7706029981527,141.85247278843903,143.7706029981527,263200.0
2024-08-12 00:00:00,141.67449951171875,142.55446478495588,141.16037300801764,142.346840835665,221100.0
2024-08-13 00:00:00,142.74232482910156,143.66184757745603,141.48665404950646,141.89202012155909,212000.0
2024-08-14 00:00:00,142.2776336669922,143.17737774735926,141.87226756324318,142.50505145879362,115700.0
2024-08-15 00:00:00,145.35255432128906,145.67883560056814,143.3652211694143,143.3652211694143,277500.0
2024-08-16 00:00:00,145.06582641601562,145.18446866448798,143.96834035737857,144.4627031750213,250600.0
2024-08-19 00:00:00,145.31301879882812,146.06444490716035,144.27485378602537,144.67035312206107,191200.0
2024-08-20 00:00:00,146.44017028808594,146.63791241918437,145.32290537158127,145.32290537158127,387200.0
2024-08-21 00:00:00,147.6464080810547,147.8837076762525,145.797495881253,146.49948266773362,267300.0
2024-08-22 00:00:00,147.31024169921875,148.70433341563083,146.99384224597927,147.8837043931481,200400.0
2024-08-23 00:00:00,148.743896484375,148.83287817641127,147.75517078595374,147.97269164654696,221400.0
2024-08-26 00:00:00,148.467041015625,150.94873686210317,148.44726227916047,148.98116746965877,235500.0
2024-08-27 00:00:00,149.4953155517578,149.83147865258644,148.15064806168712,148.31872961210144,208300.0
2024-08-28 00:00:00,149.8314971923828,150.2566571204265,149.22837386661712,149.22837386661712,249000.0
2024-08-29 00:00:00,150.56314086914062,151.1860428567918,149.50521226809275,150.83010101909915,187100.0
2024-08-30 00:00:00,151.462890625,151.71007204710835,149.93036279057682,150.48404676221847,178500.0
2024-09-03 00:00:00,148.348388671875,150.66201813984577,148.04188613676826,150.39505799224222,362400.0
2024-09-04 00:00:00,149.03062438964844,149.19870595258308,147.9133745787585,147.9133745787585,175800.0
2024-09-05 00:00:00,149.020751953125,150.04902013432525,148.25942887218088,149.37669384022473,200600.0
2024-09-06 00:00:00,150.6620330810547,151.39368047309148,148.68458160115847,148.68458160115847,319100.0
2024-09-09 00:00:00,150.1973114013672,151.3343398209315,149.73260915659608,150.84987392637626,241500.0
2024-09-10 00:00:00,149.8018341064453,151.06740186926396,149.73263114852566,150.15777598266044,158100.0
2024-09-11 00:00:00,149.13938903808594,149.17894651681053,146.95431357142107,149.0899497330591,178000.0
2024-09-12 00:00:00,150.24676513671875,150.29618935268383,148.27919554773348,149.18882138814303,200400.0
2024-09-13 00:00:00,150.56314086914062,151.2849063697999,150.1874202941439,150.4741591814065,138600.0
2024-09-16 00:00:00,151.26516723632812,151.4431306406407,150.3555413007382,151.3145914574648,182900.0
2024-09-17 00:00:00,151.30467224121094,153.81604362881413,150.15774696319932,152.26373724769851,259900.0
2024-09-18 00:00:00,151.34423828125,153.73695247734514,150.98829645367147,152.02644628791612,214200.0
2024-09-19 00:00:00,155.1310577392578,157.01952746465736,153.27226366495083,153.27226366495083,412400.0
2024-09-20 00:00:00,154.1522216796875,154.54770591003242,152.73833613702962,154.54770591003242,663300.0
2024-09-23 00:00:00,154.20167541503906,155.14096186510238,152.99542878678673,154.40929937504117,315800.0
2024-09-24 00:00:00,154.86410522460938,155.30902875503682,154.27086379286854,154.4191666074256,246200.0
2024-09-25 00:00:00,155.36834716796875,156.09011266413748,154.11266137520482,155.52654689190481,284100.0
2024-09-26 00:00:00,156.59437561035156,157.2667018207363,155.92203431321047,156.15933390398197,371600.0
2024-09-27 00:00:00,158.0873565673828,159.72864490209298,156.4757287976698,156.8909917943873,354300.0
2024-09-30 00:00:00,158.3839874267578,158.61139013518888,157.13818327022602,157.4941251596982,289800.0
2024-10-01 00:00:00,158.1664581298828,158.73002395762055,157.25683225779633,158.73002395762055,192200.0
2024-10-02 00:00:00,156.960205078125,158.30487263533544,156.1791184122872,158.05769121001555,186900.0
2024-10-03 00:00:00,157.14805603027344,158.65092323114067,154.87398403520925,156.20876968726492,367000.0
2024-10-04 00:00:00,158.7695770263672,159.64954230869964,157.53366988338584,158.13679317263103,350500.0
2024-10-07 00:00:00,156.90089416503906,157.84018062505592,156.22855279928226,157.59299918364317,223300.0
2024-10-08 00:00:00,156.88108825683594,157.22714824958643,155.3287969187031,156.4954858784808,205900.0
2024-10-09 00:00:00,157.8994903564453,158.24555038414007,156.33730194909901,156.5647197212444,152600.0
2024-10-10 00:00:00,157.42491149902344,157.58311123620453,156.26810420855668,156.26810420855668,168500.0
2024-10-11 00:00:00,159.7286376953125,160.09446137161007,158.54216988868643,159.12551442298704,194400.0
2024-10-14 00:00:00,165.3050537109375,165.8686195199857,161.61711104045096,163.12986016836592,469700.0
2024-10-15 00:00:00,166.7782440185547,167.74720606808984,164.61294740603904,165.43359154835622,397300.0
2024-10-16 00:00:00,164.1680145263672,167.2923914721706,164.04937226583914,166.79802860429376,330000.0
2024-10-17 00:00:00,165.99716186523438,166.42232177337482,164.64261244567928,165.09741783196088,238200.0
2024-10-18 00:00:00,166.7288055419922,167.19350778869833,165.8883827332456,167.19350778869833,171500.0
2024-10-21 00:00:00,164.4547576904297,166.5904089556984,164.4250971245308,166.57063021617984,217900.0
2024-10-22 00:00:00,163.9405975341797,164.4942814840338,162.95187188465275,163.85161584654372,228500.0
2024-10-23 00:00:00,165.75985717773438,166.0861384683725,164.28666554374772,164.63271048587404,318100.0
2024-10-24 00:00:00,165.115478515625,166.8801458516532,164.71891470972054,166.8702374292665,547300.0
2024-10-25 00:00:00,167.4551239013672,168.38702977953028,163.19215824985505,167.4650323220898,518900.0
2024-10-28 00:00:00,167.6435089111328,169.93360993018155,167.30642591243105,168.43660622549515,350000.0
2024-10-29 00:00:00,167.2469482421875,168.03015227664858,166.19608066645563,167.57410769776925,338100.0
2024-10-30 00:00:00,167.57411193847656,168.7340326954225,166.67194630728673,166.89997616617796,290300.0
2024-10-31 00:00:00,166.46376037597656,168.81334223932782,166.41418801075508,167.63358953292143,329900.0
2024-11-01 00:00:00,167.95082092285156,169.51721369098178,166.17623029608924,166.6521067937168,316300.0
2024-11-04 00:00:00,166.81072998046875,169.10084609191443,166.7314172247711,168.1689401216689,191800.0
2024-11-05 00:00:00,168.8430633544922,168.8926357140535,166.29520744853107,166.29520744853107,206200.0
2024-11-06 00:00:00,171.6685333251953,173.6413832769268,170.65731460415344,173.6413832769268,264100.0
2024-11-07 00:00:00,173.20518493652344,173.9487249955376,172.04524913238347,172.69956801488263,412300.0
2024-11-08 00:00:00,174.2461395263672,176.30822589753487,172.9870891748117,173.19527193268874,309200.0
2024-11-11 00:00:00,174.6327667236328,176.4965786198309,174.38492004072822,174.80131578008564,189100.0
2024-11-12 00:00:00,174.1866455078125,175.71338954396822,173.44310546000395,175.12845987623115,179800.0
2024-11-13 00:00:00,173.9883575439453,174.87069105972904,173.54223657571484,173.9883575439453,168400.0
2024-11-14 00:00:00,172.60044860839844,174.27587959999036,172.41208269528119,173.6413926505945,198200.0
2024-11-15 00:00:00,165.0559844970703,172.26335523611306,164.73873347777493,171.48016636418956,620500.0
2024-11-18 00:00:00,165.25424194335938,166.37451369071334,162.91456886076642,164.95682292498506,384400.0
2024-11-19 00:00:00,165.46243286132812,166.22580484990965,164.76846520232692,164.9865714847788,287600.0
2024-11-20 00:00:00,167.27667236328125,167.48487022471176,164.22319953558326,165.56157762118974,221800.0
2024-11-21 00:00:00,168.4167938232422,168.7637701255857,166.29522668391402,167.23704111507786,205100.0
2024-11-22 00:00:00,170.03274536132812,170.58793467872582,168.7141990963126,168.7141990963126,241600.0
2024-11-25 00:00:00,171.01422119140625,172.52113334713098,170.26077267722485,170.5681001615967,270100.0
2024-11-26 00:00:00,170.55816650390625,171.37111088426272,169.68575646744296,171.37111088426272,140300.0
2024-11-27 00:00:00,170.2508544921875,172.38234523322308,170.04267173115238,171.18276052407296,167200.0
2024-11-29 00:00:00,171.4702606201172,171.99569439258877,170.60774385254038,171.1034372324088,117300.0
2024-12-02 00:00:00,171.27195739746094,171.61894878641823,169.36849678707182,171.49006367725804,170900.0
2024-12-03 00:00:00,170.9150848388672,171.9560440443531,169.6163705013238,171.9560440443531,160100.0
2024-12-04 00:00:00,171.10342407226562,171.40084310278345,169.55686326640526,170.40945641929756,173400.0
2024-12-05 00:00:00,169.62628173828125,170.95473637434822,169.0611840204453,170.52843219867805,245000.0
2024-12-06 00:00:00,169.67584228515625,171.16292246338676,169.3784383513996,170.12197844051488,209200.0
2024-12-09 00:00:00,169.31893920898438,171.97586360965974,168.76376504007473,170.08231125491594,301700.0
2024-12-10 00:00:00,169.4379119873047,169.8939414180601,166.7413388343955,169.24954608563394,287000.0
2024-12-11 00:00:00,170.82583618164062,172.6004268077857,170.2706620619618,170.39954717094446,418600.0
2024-12-12 00:00:00,170.16160583496094,171.11334368525735,169.30901270167703,170.1913462245927,178300.0
2024-12-13 00:00:00,168.73402404785156,169.52713648377429,168.35730736449344,169.43791530566537,153200.0
2024-12-16 00:00:00,166.1861572265625,169.45772123201263,166.14649328727288,168.6745323956884,236100.0
2024-12-17 00:00:00,161.6852569580078,165.47236149946696,161.43741027735823,165.46243795073002,511900.0
2024-12-18 00:00:00,156.84730529785156,163.00380858030996,156.5498862456266,162.28010048420626,468600.0
2024-12-19 00:00:00,157.50161743164062,160.1783739165824,156.86713047927094,157.14471757547255,404700.0
2024-12-20 00:00:00,156.8175506591797,158.40377552838513,156.11367452989887,157.35290798166514,730200.0
2024-12-23 00:00:00,157.15463256835938,157.5313492484861,155.6080716516251,155.81625439876012,194900.0
2024-12-24 00:00:00,157.97747802734375,158.04686723070105,156.55978716816827,157.41238034244816,100500.0
2024-12-26 00:00:00,157.48179626464844,158.2550767438941,157.05549208244994,157.05549208244994,164500.0
2024-12-27 00:00:00,156.7877960205078,158.2054868267425,156.25245387402595,156.46065173104452,145000.0
2024-12-30 00:00:00,155.38003540039062,156.1334989843031,153.66494062137437,155.64771404874693,221700.0
2024-12-31 00:00:00,155.7468719482422,156.88696071449593,154.83478278240477,155.92531431066993,317100.0
2025-01-02 00:00:00,152.83218383789062,156.74815844487122,152.1282925947526,156.29211388733148,239400.0
2025-01-03 00:00:00,154.16064453125,154.37875083338028,151.55329245501395,152.71321317414572,250700.0
2025-01-06 00:00:00,151.60284423828125,153.3080304812462,150.1355962364369,152.67354363228432,369000.0
2025-01-07 00:00:00,152.1084442138672,154.71579590581985,151.28560661853143,154.57700238195315,361200.0
2025-01-08 00:00:00,152.822265625,152.93131877556544,150.78001128473923,151.5731237318188,228600.0
2025-01-10 00:00:00,152.12831115722656,152.97099604202836,151.2658094268589,151.40460298263488,350800.0
2025-01-13 00:00:00,152.5644989013672,153.36751970927097,151.61276101180977,151.61276101180977,349300.0
2025-01-14 00:00:00,153.27830505371094,154.11106628788028,152.15803319253664,153.47657937698537,196900.0
2025-01-15 00:00:00,154.22012329101562,155.56840990130098,152.8420962878635,154.7752974610105,206100.0
2025-01-16 00:00:00,155.0628204345703,155.81626899275426,153.97228885146995,154.5472950382535,346300.0
2025-01-17 00:00:00,154.74554443359375,156.58952427758456,154.33907226112,155.61796955941833,231900.0
2025-01-21 00:00:00,158.45335388183594,158.87964294422474,155.37014033219427,155.37014033219427,270900.0
2025-01-22 00:00:00,157.6999053955078,159.36542795687828,156.9761821404571,157.96756893956675,280000.0
2025-01-23 00:00:00,158.24514770507812,158.43351360737364,156.3714273584646,157.09515057542757,149800.0
2025-01-24 00:00:00,156.9365234375,159.08783084075174,155.8658239466324,158.2748864555637,329600.0
2025-01-27 00:00:00,157.09515380859375,157.55118325024728,155.30073105272626,156.88695593141347,317000.0
2025-01-28 00:00:00,157.0554962158203,158.9688806203647,156.2128265059326,156.2128265059326,204300.0
2025-01-29 00:00:00,155.75677490234375,157.45205292270268,155.27098994274112,157.41238898086985,265800.0
2025-01-30 00:00:00,156.7679901123047,157.31324071767784,155.23133763909388,156.46066264313475,274200.0
2025-01-31 00:00:00,155.7964324951172,158.0171444146754,155.40979224095005,156.53997260908184,834100.0
2025-02-03 00:00:00,154.63650512695312,155.3998771803424,152.8123570891829,153.24856969111963,364600.0
2025-02-04 00:00:00,156.3416748046875,157.09513835525897,154.74554166118756,154.74554166118756,302400.0
2025-02-05 00:00:00,157.405517578125,158.7377738146127,156.86862823642628,157.3657401309949,262600.0
2025-02-06 00:00:00,155.54629516601562,158.91671290945166,154.47253174722408,158.91671290945166,446600.0
2025-02-07 00:00:00,142.3529510498047,156.9879260492011,141.21953656724563,156.70954460931995,1221500.0
2025-02-10 00:00:00,142.45237731933594,143.76475994786696,140.08611994582418,143.42671234404355,621900.0
2025-02-11 00:00:00,141.4680938720703,142.24360237138956,139.44982082814468,141.4482203194948,377300.0
2025-02-12 00:00:00,140.88150024414062,142.6611692257182,139.12171998504917,140.15572116522446,423500.0
2025-02-13 00:00:00,141.94532775878906,142.94948827582462,140.64289708530572,141.9254390361858,665900.0
2025-02-14 00:00:00,143.9536590576172,144.47065968761524,141.8956236556128,142.8600219668595,512800.0
2025-02-18 00:00:00,146.0514678955078,146.43921456469178,143.0687965415847,143.9536551030892,489600.0
2025-02-19 00:00:00,146.19065856933594,146.63807140879464,144.76892583969018,145.29586323172052,331000.0
2025-02-20 00:00:00,145.83273315429688,146.5684641946975,145.07712856165745,146.12106653891558,283100.0
2025-02-21 00:00:00,145.4947052001953,146.53864320961054,144.3612906909976,146.18072203982962,451900.0
2025-02-24 00:00:00,144.7689208984375,146.43920951714958,143.52614121047299,145.33562054741108,353300.0
2025-02-25 00:00:00,146.85679626464844,147.4732101328453,144.87828554775948,145.03736498814914,336700.0
2025-02-26 00:00:00,145.79296875,148.3182903766483,145.7730800274011,145.80290552597427,735600.0
2025-02-27 00:00:00,144.78880310058594,146.32983770774024,144.520358452293,145.38532822155378,262800.0
2025-02-28 00:00:00,145.90234375,146.10118547736886,143.79459413271746,145.31575534453384,348700.0
2025-03-03 00:00:00,145.74325561523438,147.9802590488003,144.8484603100682,146.1210654941781,394100.0
2025-03-04 00:00:00,145.09703063964844,147.0954151104243,144.3016485280213,144.69933199850888,490100.0
2025-03-05 00:00:00,147.58258056640625,147.99021595781406,145.20638633523407,145.20638633523407,445100.0
2025-03-06 00:00:00,150.27691650390625,150.6249008910568,146.21054493268804,146.70765681681692,471700.0
2025-03-07 00:00:00,151.8975067138672,152.4741583222623,148.3182950654323,149.64061450303043,480200.0
2025-03-10 00:00:00,149.70028686523438,153.1104672632765,149.3721911863349,151.19162258533123,391100.0
2025-03-11 00:00:00,147.03575134277344,149.69032696299743,146.41933746583285,149.47159652202163,304000.0
2025-03-12 00:00:00,145.18649291992188,147.38373408131363,144.71920654402385,147.38373408131363,299700.0
2025-03-13 00:00:00,143.923828125,146.34973656191247,142.92960435057037,145.56430645519941,238400.0
2025-03-14 00:00:00,145.81285095214844,146.0415181545341,143.7050863997796,144.39110317758622,223600.0
2025-03-17 00:00:00,146.9860382080078,147.14511765183084,145.01747939531282,145.66371877619906,225200.0
2025-03-18 00:00:00,145.45494079589844,146.67783178698824,144.93794018696707,146.53864106581256,219900.0
2025-03-19 00:00:00,146.13101196289062,146.60825031657424,144.6297394648877,145.49470932863062,279600.0
2025-03-20 00:00:00,144.36129760742188,146.56847573170933,142.89978735834907,145.28593366142692,332800.0
2025-03-21 00:00:00,143.98348999023438,144.6197925800202,141.53769290317146,143.16821923766327,601900.0
2025-03-24 00:00:00,147.13519287109375,147.32408265905113,144.07298159577567,144.90812598795733,463800.0
2025-03-25 00:00:00,146.3596954345703,148.36801663108272,145.08707498608157,147.63230071240747,325200.0
2025-03-26 00:00:00,147.70188903808594,147.84107976678192,145.4549486546647,146.20061652353277,630400.0
2025-03-27 00:00:00,148.48733520507812,149.0242093986481,146.1807286356031,147.42350842416033,312700.0
2025-03-28 00:00:00,146.08128356933594,149.13355766478725,144.9180436400286,148.42765215008794,239800.0
2025-03-31 00:00:00,147.52293395996094,148.22882437034573,145.2561048840848,145.73332806567677,372500.0
2025-04-01 00:00:00,148.23876953125,149.16339035142067,146.52870344062717,148.02003908914818,240000.0
2025-04-02 00:00:00,149.66049194335938,150.25703223000897,147.14510720280128,147.14510720280128,247600.0
2025-04-03 00:00:00,147.81124877929688,149.18328246169622,145.61402270281934,145.91227770277482,352900.0
2025-04-04 00:00:00,139.3702850341797,147.10536015695996,139.2310943089737,144.38118148289823,531600.0
2025-04-07 00:00:00,133.87222290039062,141.299075583748,130.09418475781067,135.55246347813676,629900.0
2025-04-08 00:00:00,132.88795471191406,138.50531302754496,130.52169724957807,136.58646840487157,473800.0
2025-04-09 00:00:00,142.91966247558594,143.5857905602115,130.56146868221785,132.41071027286026,491800.0
2025-04-10 00:00:00,139.9469451904297,142.54187007404866,136.77538381769733,139.19134051762592,309000.0
2025-04-11 00:00:00,143.27760314941406,143.8741435423267,138.9328496728098,140.05631233486017,203000.0
2025-04-14 00:00:00,144.9478759765625,145.55435307983893,142.95942844721688,144.9578279234257,249300.0
2025-04-15 00:00:00,143.10858154296875,145.69355441710073,142.93956531113585,145.25610867211356,250700.0
2025-04-16 00:00:00,144.16244506835938,144.97771583272723,141.7464886156778,143.22787230750868,307700.0
2025-04-17 00:00:00,142.99920654296875,144.91805113559164,139.89723323770653,144.5601299718575,390600.0
2025-04-21 00:00:00,141.75643920898438,143.2179494909568,140.2849921498867,142.47228159895667,291600.0
2025-04-22 00:00:00,145.1765594482422,145.97194150004367,142.7605877933271,143.66533506688444,217800.0
2025-04-23 00:00:00,147.19483947753906,148.45750797579856,146.36963188706406,147.01587130133106,537000.0
2025-04-24 00:00:00,150.58514404296875,151.12201822209224,144.61980121841248,147.07552005752225,424500.0
2025-04-25 00:00:00,148.19900512695312,152.11624953576674,146.71762129493976,149.9786743197014,220500.0
2025-04-28 00:00:00,148.83529663085938,150.15761607695163,147.4235006856442,148.93472507698547,235200.0
2025-04-29 00:00:00,149.4318389892578,151.1021276781012,148.14928180186274,148.89494964595022,359900.0
2025-04-30 00:00:00,149.08384704589844,149.12362449113388,146.35968370263532,148.2089404691736,556200.0
2025-05-01 00:00:00,147.86724853515625,150.11098546490427,146.5509307821878,148.03677349944607,445300.0
2025-05-02 00:00:00,151.57688903808594,152.5741054133365,147.37860140310275,152.56413872745716,431600.0
2025-05-05 00:00:00,151.05833435058594,152.79349634538158,150.46001364695312,151.00847048787122,267600.0
2025-05-06 00:00:00,150.49989318847656,151.61677065702543,149.0040686289639,149.8317600445186,312000.0
2025-05-07 00:00:00,150.96859741210938,152.72369288222805,150.20073648679445,151.45723894936714,318400.0
2025-05-08 00:00:00,152.93310546875,154.13974399022413,150.81901160098963,151.36746843989067,302500.0
2025-05-09 00:00:00,152.89321899414062,153.8704867623785,152.5142719096689,153.48157299222058,231600.0
2025-05-12 00:00:00,155.08709716796875,156.15411079233525,153.2721560351031,155.35633463740874,352500.0
2025-05-13 00:00:00,153.2123260498047,155.87489199381622,152.77354840216572,155.87489199381622,339400.0
2025-05-14 00:00:00,152.05555725097656,153.19238337450628,150.54976591692431,153.19238337450628,350100.0
2025-05-15 00:00:00,154.5186767578125,155.04720022779077,151.92592327073905,151.92592327073905,278100.0
2025-05-16 00:00:00,156.57293701171875,156.71254669507653,154.15967521864064,154.74802922591164,278600.0
2025-05-19 00:00:00,157.6399688720703,157.8992396557861,155.87489159991557,155.92475546271484,185400.0
2025-05-20 00:00:00,158.08871459960938,159.8138947102219,157.47044530112373,159.8138947102219,388100.0
2025-05-21 00:00:00,156.01449584960938,157.21115243352105,155.39622657812305,156.423358207476,319800.0
2025-05-22 00:00:00,156.2139434814453,156.82224609607596,155.1269812538263,155.92475741968343,278900.0
2025-05-23 00:00:00,155.5059356689453,155.74525787853625,153.8306041202314,154.6882108760017,260500.0
2025-05-27 00:00:00,157.71975708007812,157.99897646823499,156.25384768409688,156.592897624528,352800.0
2025-05-28 00:00:00,156.96185302734375,158.39784705740496,156.82224334199415,157.71974721893966,364400.0
2025-05-29 00:00:00,157.8892822265625,158.22833216737214,156.3834908661558,157.39067400196637,232100.0
2025-05-30 00:00:00,157.95907592773438,158.33802303916113,156.10425276512643,157.79953286383662,335100.0
2025-06-02 00:00:00,156.47323608398438,158.6272272577487,154.82781981944967,157.1014720974291,349600.0
2025-06-03 00:00:00,155.8250274658203,157.00175071731294,155.56575668255596,155.74524832874332,397800.0
2025-06-04 00:00:00,149.99131774902344,156.08431037372102,149.87164143762118,156.054395099949,831900.0
2025-06-05 00:00:00,152.06553649902344,152.9131613214148,148.63510959911858,151.15806591006776,482400.0
2025-06-06 00:00:00,152.88323974609375,154.04998107682133,151.7863108653235,153.94028666711287,264700.0
2025-06-09 00:00:00,151.17800903320312,152.75359752052293,150.93867162454364,152.2849198217423,388400.0
2025-06-10 00:00:00,152.1054229736328,152.5741159195799,150.44007333824624,151.73645775860376,323500.0
2025-06-11 00:00:00,151.4971160888672,153.16246567758657,151.17801474823915,152.5741116440773,380800.0
2025-06-12 00:00:00,153.9203643798828,154.18960186429905,150.98854559682746,150.98854559682746,337200.0
2025-06-13 00:00:00,150.73924255371094,153.2921142365164,150.31043156681716,152.57411717368794,361200.0
2025-06-16 00:00:00,151.26776123046875,152.47438457789974,150.69934056706447,150.8190168845951,346200.0
2025-06-17 00:00:00,149.0339813232422,150.83894049253541,148.7148800018862,150.24061980887515,379700.0
2025-06-18 00:00:00,149.28329467773438,150.31042637060037,148.70490732954426,148.70490732954426,383200.0
2025-06-20 00:00:00,149.88162231445312,150.35031522209397,148.57527131429785,149.8716404123879,570500.0
2025-06-23 00:00:00,153.36190795898438,153.51149955316077,149.07388948626692,149.07388948626692,356500.0
2025-06-24 00:00:00,153.44168090820312,154.13974455356382,152.75359916517385,154.13974455356382,246600.0
2025-06-25 00:00:00,153.5015106201172,154.09984653678893,152.3447511795673,153.43171338575036,264700.0
2025-06-26 00:00:00,154.04998779296875,155.14693193787699,152.69377285758898,154.0998516570673,658200.0
2025-06-27 00:00:00,155.38626098632812,155.6754470364196,153.80067540476105,154.22948635333395,643100.0
2025-06-30 00:00:00,155.9945526123047,156.0643650634484,154.1796266946574,155.5956721427578,315500.0
2025-07-01 00:00:00,158.56736755371094,159.35517699739853,155.52586983589788,155.99454752498934,338300.0
2025-07-02 00:00:00,159.8737335205078,160.08314043416175,158.2083688153944,158.57734921426047,293500.0
2025-07-03 00:00:00,160.5917205810547,160.91083712934912,159.37513058554714,160.15295815162165,235100.0
2025-07-07 00:00:00,160.511962890625,161.91802648921993,160.10310050337057,160.50198098790676,313900.0
2025-07-08 00:00:00,159.6044921875,162.12744853055042,159.40505194535942,160.45211702067627,342700.0
2025-07-09 00:00:00,159.28536987304688,159.56458924522028,157.6599175028191,159.48481010798295,252800.0
2025-07-10 00:00:00,157.8892822265625,159.91363040111747,157.8892822265625,158.7468889815204,361600.0
2025-07-11 00:00:00,157.46046447753906,158.11863095765145,156.19401059720994,158.11863095765145,292000.0
2025-07-14 00:00:00,157.1214141845703,158.4975776913543,156.25384078228376,156.7025851208349,276600.0
2025-07-15 00:00:00,153.7308807373047,157.560187983209,153.6411349150525,157.30091720237564,254200.0
2025-07-16 00:00:00,154.54859924316406,155.17685046809117,153.12258704118602,153.49155225388785,261900.0
2025-07-17 00:00:00,155.59567260742188,155.97461970604328,154.07989942925087,154.30927015542414,397700.0
2025-07-18 00:00:00,155.9447021484375,156.77239356860005,154.48875954056155,156.41339506366586,243100.0
2025-07-21 00:00:00,155.0172882080078,156.2338934479991,154.80788128261622,155.98458934498964,205900.0
2025-07-22 00:00:00,158.7269287109375,158.91640225695076,154.7978937556552,155.67544903558425,449900.0
2025-07-23 00:00:00,161.2100067138672,161.3994802642871,158.69701712782512,159.62443629137653,450500.0
2025-07-24 00:00:00,161.82000732421875,164.27999877929688,159.7899932861328,160.9600067138672,431900.0
2025-07-25 00:00:00,160.99000549316406,163.08999633789062,160.77999877929688,162.0500030517578,296300.0
2025-07-28 00:00:00,158.6999969482422,161.97999572753906,158.16000366210938,161.1999969482422,308500.0
2025-07-29 00:00:00,158.82000732421875,159.60000610351562,157.22000122070312,159.0500030517578,388200.0
2025-07-30 00:00:00,156.7899932861328,158.92999267578125,154.9199981689453,158.8000030517578,580700.0
2025-07-31 00:00:00,157.13999938964844,157.35000610351562,155.17999267578125,155.77999877929688,679700.0
2025-08-01 00:00:00,141.35000610351562,158.1199951171875,141.08999633789062,156.97000122070312,1012300.0
2025-08-04 00:00:00,139.1300048828125,143.1199951171875,137.0800018310547,143.1199951171875,839000.0
2025-08-05 00:00:00,140.22000122070312,141.07000732421875,137.69000244140625,139.33999633789062,540800.0
2025-08-06 00:00:00,138.5399932861328,140.75999450683594,137.5500030517578,140.30999755859375,515300.0
2025-08-07 00:00:00,140.49000549316406,141.49000549316406,138.91000366210938,139.8000030517578,564000.0
2025-08-08 00:00:00,140.75,142.0500030517578,140.5800018310547,140.69000244140625,428700.0
2025-08-11 00:00:00,139.8699951171875,141.6199951171875,139.1999969482422,141.3300018310547,349500.0
2025-08-12 00:00:00,139.47999572753906,141.08999633789062,139.22999572753906,140.22000122070312,286100.0
2025-08-13 00:00:00,141.42999267578125,141.44000244140625,139.25,139.69000244140625,729900.0
2025-08-14 00:00:00,138.33999633789062,140.19000244140625,136.44000244140625,140.19000244140625,875800.0
2025-08-15 00:00:00,138.72000122070312,138.9499969482422,137.8699951171875,138.36000061035156,770500.0
2025-08-18 00:00:00,137.88999938964844,139.57000732421875,137.35000610351562,138.88999938964844,529500.0
2025-08-19 00:00:00,139.58999633789062,140.52000427246094,138.27000427246094,138.27000427246094,333100.0
2025-08-20 00:00:00,141.17999267578125,141.25,139.25999450683594,139.91000366210938,519200.0
2025-08-21 00:00:00,140.63999938964844,141.89999389648438,140.24000549316406,140.6300048828125,270400.0
2025-08-22 00:00:00,141.42999267578125,143.3300018310547,141.19000244140625,141.25999450683594,356500.0
2025-08-25 00:00:00,139.55999755859375,141.61000061035156,138.9600067138672,140.97000122070312,245800.0
2025-08-26 00:00:00,139.7100067138672,140.16000366210938,138.00999450683594,139.07000732421875,442900.0
2025-08-27 00:00:00,139.44000244140625,140.57000732421875,139.02999877929688,139.08999633789062,729100.0
2025-08-28 00:00:00,138.88999938964844,140.1699981689453,137.39999389648438,140.1699981689453,320800.0
2025-08-29 00:00:00,139.27000427246094,139.8699951171875,138.35000610351562,139.1699981689453,370700.0
2025-09-02 00:00:00,136.41000366210938,138.52999877929688,136.1699981689453,137.4199981689453,310600.0
2025-09-03 00:00:00,135.22000122070312,136.17999267578125,134.44000244140625,136.0800018310547,382300.0
2025-09-04 00:00:00,138.4600067138672,138.47999572753906,135.0399932861328,136.35000610351562,401800.0
2025-09-05 00:00:00,138.6199951171875,140.82000732421875,137.6300048828125,139.02000427246094,440800.0
2025-09-08 00:00:00,138.3000030517578,140.0,137.67999267578125,138.58999633789062,616100.0
2025-09-09 00:00:00,137.0500030517578,139.47999572753906,135.10000610351562,138.25999450683594,637100.0
2025-09-10 00:00:00,136.25,137.4600067138672,134.85000610351562,136.1300048828125,685100.0
2025-09-11 00:00:00,137.10000610351562,138.27999877929688,135.8699951171875,136.75,477500.0
2025-09-12 00:00:00,135.22999572753906,137.0500030517578,135.22000122070312,136.6199951171875,261300.0
2025-09-15 00:00:00,134.85000610351562,136.1699981689453,134.6300048828125,135.97000122070312,298000.0
2025-09-16 00:00:00,135.2100067138672,135.4199981689453,134.10000610351562,134.7899932861328,474800.0
2025-09-17 00:00:00,134.64999389648438,137.07000732421875,134.19000244140625,135.4199981689453,377400.0
2025-09-18 00:00:00,134.5,135.50999450683594,134.07000732421875,134.89999389648438,254800.0
2025-09-19 00:00:00,134.44000244140625,135.10000610351562,133.33999633789062,134.66000366210938,877200.0
2025-09-22 00:00:00,132.72000122070312,134.94000244140625,132.6699981689453,134.1199951171875,402100.0
2025-09-23 00:00:00,132.02000427246094,133.9499969482422,131.97000122070312,133.00999450683594,319700.0
2025-09-24 00:00:00,131.5,133.30999755859375,131.33999633789062,132.0,353300.0
2025-09-25 00:00:00,130.82000732421875,132.52000427246094,130.27000427246094,131.5,388700.0
2025-09-26 00:00:00,132.2899932861328,132.42999267578125,130.9600067138672,131.3300018310547,274400.0
2025-09-29 00:00:00,132.27000427246094,132.67999267578125,131.36000061035156,132.39999389648438,540600.0
2025-09-30 00:00:00,133.66000366210938,133.75999450683594,131.7100067138672,131.7100067138672,310400.0
2025-10-01 00:00:00,134.13999938964844,134.36000061035156,132.30999755859375,133.3300018310547,310100.0
2025-10-02 00:00:00,133.17999267578125,134.38999938964844,132.9600067138672,133.66000366210938,398500.0
2025-10-03 00:00:00,133.22000122070312,133.5800018310547,132.42999267578125,132.47000122070312,402000.0
2025-10-06 00:00:00,131.8800048828125,133.1999969482422,131.41000366210938,132.88999938964844,447100.0
2025-10-07 00:00:00,130.58999633789062,132.50999450683594,129.80999755859375,132.11000061035156,438800.0
2025-10-08 00:00:00,131.61000061035156,132.00999450683594,130.25999450683594,131.17999267578125,361300.0
2025-10-09 00:00:00,130.61000061035156,132.83999633789062,130.1999969482422,131.6999969482422,554200.0
2025-10-10 00:00:00,130.92999267578125,132.00999450683594,129.88999938964844,130.94000244140625,426000.0
2025-10-13 00:00:00,130.22000122070312,132.35000610351562,130.16000366210938,130.99000549316406,311400.0
2025-10-14 00:00:00,129.8000030517578,131.05999755859375,129.0399932861328,130.0399932861328,337400.0
2025-10-15 00:00:00,128.10000610351562,130.38999938964844,127.86000061035156,129.8000030517578,438300.0
2025-10-16 00:00:00,129.16000366210938,129.5,127.8499984741211,128.44000244140625,352700.0
2025-10-17 00:00:00,129.33999633789062,130.10000610351562,128.85000610351562,129.16000366210938,339700.0
